# Energy Eigenvalues:,3.108855,12.108395,25.334644
# Position x, Psi 1,Psi 2,Psi 3
-1.500000000000000000e+00,1.124829058082688000e-05,6.874034749128444068e-05,8.672167689279158863e-04
-1.496996996996996954e+00,2.250203669664328172e-05,1.375028770770321627e-04,1.734506509470473863e-03
-1.493993993993993907e+00,3.376669652842857739e-05,2.063097780097344967e-04,2.601942199382486533e-03
-1.490990990990991083e+00,4.504773355042491557e-05,2.751832538602473556e-04,3.469596828699612109e-03
-1.487987987987988037e+00,5.635061917997767665e-05,3.441455296827497208e-04,4.337543405880069265e-03
-1.484984984984984990e+00,6.768083543122818679e-05,4.132188591866326204e-04,5.205854963947895674e-03
-1.481981981981981944e+00,7.904387757394705949e-05,4.824255319176426124e-04,6.074604566638351633e-03
-1.478978978978978898e+00,9.044525679879494861e-05,5.517878804505780936e-04,6.943865314545777032e-03
-1.475975975975976073e+00,1.018905028903062767e-04,6.213282875958787369e-04,7.813710351274642807e-03
-1.472972972972973027e+00,1.133851669088907472e-04,6.910691936224221251e-04,8.684212869594172893e-03
-1.469969969969969981e+00,1.249348238831534254e-04,7.610331034988611094e-04,9.555446117597109559e-03
-1.466966966966966934e+00,1.365450755138396352e-04,8.312425941558357996e-04,1.042748340486308184e-02
-1.463963963963963888e+00,1.482215528907183456e-04,9.017203217714253203e-04,1.130039810862734986e-02
-1.460960960960961064e+00,1.599699192237176372e-04,9.724890290821570308e-04,1.217426367995510031e-02
-1.457957957957958017e+00,1.717958725896384078e-04,1.043571552721947286e-03,1.304915364992189318e-02
-1.454954954954954971e+00,1.837051486957767647e-04,1.114990830591329604e-03,1.392514163580074564e-02
-1.451951951951951925e+00,1.957035236618054667e-04,1.186769909259406111e-03,1.480230134725697179e-02
-1.448948948948948878e+00,2.077968168212463026e-04,1.258931951400814276e-03,1.568070659255019206e-02
-1.445945945945946054e+00,2.199908935439066036e-04,1.331500243270182212e-03,1.656043128474490519e-02
-1.442942942942943008e+00,2.322916680806443837e-04,1.404498202216473285e-03,1.744154944793000622e-02
-1.439939939939939961e+00,2.447051064318397505e-04,1.477949384239620042e-03,1.832413522344747761e-02
-1.436936936936936915e+00,2.572372292409656779e-04,1.551877491591904671e-03,1.920826287613101521e-02
-1.433933933933933869e+00,2.698941147146610708e-04,1.626306380426530227e-03,2.009400680055497407e-02
-1.430930930930931044e+00,2.826819015707231469e-04,1.701260068495861555e-03,2.098144152729433318e-02
-1.427927927927927998e+00,2.956067920154454307e-04,1.776762742901794208e-03,2.187064172919584229e-02
-1.424924924924924952e+00,3.086750547517483367e-04,1.852838767900773231e-03,2.276168222766122157e-02
-1.421921921921921905e+00,3.218930280195743073e-04,1.929512692766051970e-03,2.365463799894370472e-02
-1.418918918918918859e+00,3.352671226699904718e-04,2.006809259709548595e-03,2.454958418045629850e-02
-1.415915915915916035e+00,3.488038252745136181e-04,2.084753411865992653e-03,2.544659607709404137e-02
-1.412912912912912988e+00,3.625097012711705905e-04,2.163370301341963932e-03,2.634574916757098997e-02
-1.409909909909909942e+00,3.763913981487968722e-04,2.242685297332296709e-03,2.724711911077096899e-02
-1.406906906906906896e+00,3.904556486711379640e-04,2.322723994306577673e-03,2.815078175211403397e-02
-1.403903903903903849e+00,4.047092741423072206e-04,2.403512220268314448e-03,2.905681312993830048e-02
-1.400900900900900803e+00,4.191591877151921346e-04,2.485076045089513411e-03,2.996528948189862082e-02
-1.397897897897897979e+00,4.338123977443978014e-04,2.567441788923226827e-03,3.087628725138103283e-02
-1.394894894894894932e+00,4.486760111853734401e-04,2.650636030696933761e-03,3.178988309393537826e-02
-1.391891891891891886e+00,4.637572370413527720e-04,2.734685616689365960e-03,3.270615388372509480e-02
-1.388888888888888840e+00,4.790633898598036238e-04,2.819617669193697808e-03,3.362517671999640245e-02
-1.385885885885885793e+00,4.946018932800450973e-04,2.905459595269675992e-03,3.454702893356498966e-02
-1.382882882882882969e+00,5.103802836337945677e-04,2.992239095587746756e-03,3.547178809332338784e-02
-1.379879879879879923e+00,5.264062136003652475e-04,3.079984173367900351e-03,3.639953201276803496e-02
-1.376876876876876876e+00,5.426874559182949011e-04,3.168723143416146606e-03,3.733033875654695466e-02
-1.373873873873873830e+00,5.592319071552022880e-04,3.258484641261532016e-03,3.826428664702843235e-02
-1.370870870870870784e+00,5.760475915376966427e-04,3.349297632396616622e-03,3.920145427089106321e-02
-1.367867867867867959e+00,5.931426648432166744e-04,3.441191421624503234e-03,4.014192048573680949e-02
-1.364864864864864913e+00,6.105254183556557820e-04,3.534195662515272202e-03,4.108576442672592921e-02
-1.361861861861861867e+00,6.282042828867278684e-04,3.628340366975057411e-03,4.203306551323632290e-02
-1.358858858858858820e+00,6.461878328649979953e-04,3.723655914930717754e-03,4.298390345554635450e-02
-1.355855855855855774e+00,6.644847904945609934e-04,3.820173064133217024e-03,4.393835826154157687e-02
-1.352852852852852950e+00,6.831040299853985203e-04,3.917922960082964416e-03,4.489651024344704783e-02
-1.349849849849849903e+00,7.020545818574613255e-04,4.016937146080278888e-03,4.585844002458507040e-02
-1.346846846846846857e+00,7.213456373205635918e-04,4.117247573404231309e-03,4.682422854615937713e-02
-1.343843843843843811e+00,7.409865527322160184e-04,4.218886611623138237e-03,4.779395707406600136e-02
-1.340840840840840764e+00,7.609868541355587846e-04,4.321887059040061853e-03,4.876770720573175844e-02
-1.337837837837837718e+00,7.813562418795783017e-04,4.426282153276553909e-03,4.974556087697940693e-02
-1.334834834834834894e+00,8.021045953238762315e-04,4.532105581998246285e-03,5.072760036892229318e-02
-1.331831831831831847e+00,8.232419776302591372e-04,4.639391493785661319e-03,5.171390831488788947e-02
-1.328828828828828801e+00,8.447786406434772003e-04,4.748174509153765994e-03,5.270456770737105140e-02
-1.325825825825825754e+00,8.667250298634689501e-04,4.858489731723782817e-03,5.369966190501724440e-02
-1.322822822822822708e+00,8.890917895115503771e-04,4.970372759551003501e-03,5.469927463963761283e-02
-1.319819819819819884e+00,9.118897676929495037e-04,5.083859696611948281e-03,5.570349002325333809e-02
-1.316816816816816837e+00,9.351300216582438289e-04,5.198987164454882404e-03,5.671239255517297045e-02
-1.313813813813813791e+00,9.588238231662635919e-04,5.315792314017508784e-03,5.772606712910410137e-02
-1.310810810810810745e+00,9.829826639509930096e-04,5.434312837615256839e-03,5.874459904029574742e-02
-1.307807807807807698e+00,1.007618261295187582e-03,5.554586981104421908e-03,5.976807399271604621e-02
-1.304804804804804874e+00,1.032742563713366472e-03,5.676653556223822464e-03,6.079657810626326597e-02
-1.301801801801801828e+00,1.058367756746965817e-03,5.800551953119127170e-03,6.183019792401252962e-02
-1.298798798798798781e+00,1.084506268874449886e-03,5.926322153053820846e-03,6.286902041949786468e-02
-1.295795795795795735e+00,1.111170777539237072e-03,6.054004741310843422e-03,6.391313300402995390e-02
-1.292792792792792689e+00,1.138374215298418139e-03,6.183640920289385293e-03,6.496262353405297951e-02
-1.289789789789789864e+00,1.166129776095146389e-03,6.315272522800477635e-03,6.601758031853550979e-02
-1.286786786786786818e+00,1.194450921657843690e-03,6.448942025566241874e-03,6.707809212640171437e-02
-1.283783783783783772e+00,1.223351388029292417e-03,6.584692562926963352e-03,6.814424819400187461e-02
-1.280780780780780725e+00,1.252845192228733409e-03,6.722567940760164687e-03,6.921613823261980880e-02
-1.277777777777777679e+00,1.282946639050268085e-03,6.862612650616526505e-03,7.029385243602197242e-02
-1.274774774774774855e+00,1.313670328000833380e-03,7.004871884077064348e-03,7.137748148804692883e-02
-1.271771771771771808e+00,1.345031160381105970e-03,7.149391547336163104e-03,7.246711657023582887e-02
-1.268768768768768762e+00,1.377044346512787875e-03,7.296218276015238591e-03,7.356284936950487074e-02
-1.265765765765765716e+00,1.409725413115769585e-03,7.445399450211787236e-03,7.466477208586050351e-02
-1.262762762762762669e+00,1.443090210838749842e-03,7.596983209788679345e-03,7.577297744015773495e-02
-1.259759759759759845e+00,1.477154921946944189e-03,7.751018469908506348e-03,7.688755868190116916e-02
-1.256756756756756799e+00,1.511936068170658537e-03,7.907554936818265989e-03,7.800860959709197961e-02
-1.253753753753753752e+00,1.547450518718487995e-03,8.066643123889239222e-03,7.913622451611920794e-02
-1.250750750750750706e+00,1.583715498459059047e-03,8.228334367917347972e-03,8.027049832169730337e-02
-1.247747747747747660e+00,1.620748596275258316e-03,8.392680845689221361e-03,8.141152645684963940e-02
-1.244744744744744835e+00,1.658567773595048160e-03,8.559735590819461670e-03,8.255940493294114391e-02
-1.241741741741741789e+00,1.697191373102930950e-03,8.729552510864225720e-03,8.371423033775637901e-02
-1.238738738738738743e+00,1.736638127636303203e-03,8.902186404716679741e-03,8.487609984362534665e-02
-1.235735735735735696e+00,1.776927169271101236e-03,9.077692980290446093e-03,8.604511121560143305e-02
-1.232732732732732650e+00,1.818078038601055827e-03,9.256128872496209581e-03,8.722136281968805027e-02
-1.229729729729729826e+00,1.860110694215051869e-03,9.437551661517329382e-03,8.840495363111422478e-02
-1.226726726726726779e+00,1.903045522377275678e-03,9.622019891390767507e-03,8.959598324266430935e-02
-1.223723723723723733e+00,1.946903346914745240e-03,9.809593088898827667e-03,9.079455187305751629e-02
-1.220720720720720687e+00,1.991705439317084745e-03,1.000033178277811609e-02,9.200076037538099105e-02
-1.217717717717717640e+00,2.037473529053413206e-03,1.019429752325180794e-02,9.321471024557624607e-02
-1.214714714714714816e+00,2.084229814111333411e-03,1.039155290189139325e-02,9.443650363097821909e-02
-1.211711711711711770e+00,2.131996971763204345e-03,1.059216157181474584e-02,9.566624333891164678e-02
-1.208708708708708723e+00,2.180798169564859834e-03,1.079618826822663878e-02,9.690403284534215844e-02
-1.205705705705705677e+00,2.230657076592076037e-03,1.100369882930823939e-02,9.814997630358181235e-02
-1.202702702702702631e+00,2.281597874920318278e-03,1.121476021746273602e-02,9.940417855305333505e-02
-1.199699699699699806e+00,2.333645271353321400e-03,1.142944054092382214e-02,1.006667451281129805e-01
-1.196696696696696760e+00,2.386824509406123684e-03,1.164780907573374769e-02,1.019377822669299549e-01
-1.193693693693693714e+00,2.441161381548419447e-03,1.186993628809822170e-02,1.032173969204254055e-01
-1.190690690690690667e+00,2.496682241714167413e-03,1.209589385712543999e-02,1.045056967612718601e-01
-1.187687687687687621e+00,2.553414018083528542e-03,1.232575469795656187e-02,1.058027901929537301e-01
-1.184684684684684797e+00,2.611384226143295944e-03,1.255959298529491647e-02,1.071087863588883471e-01
-1.181681681681681750e+00,2.670620982032216682e-03,1.279748417734190638e-02,1.084237951516113380e-01
-1.178678678678678704e+00,2.731153016177561080e-03,1.303950504014669484e-02,1.097479272220215768e-01
-1.175675675675675658e+00,2.793009687229678489e-03,1.328573367237817666e-02,1.110812939886920842e-01
-1.172672672672672611e+00,2.856220996301251595e-03,1.353624953052700620e-02,1.124240076472459299e-01
-1.169669669669669787e+00,2.920817601518140884e-03,1.379113345454572974e-02,1.137761811797967787e-01
-1.166666666666666741e+00,2.986830832888883510e-03,1.405046769393532811e-02,1.151379283644556606e-01
-1.163663663663663694e+00,3.054292707500078606e-03,1.431433593428670797e-02,1.165093637849053121e-01
-1.160660660660660648e+00,3.123235945044970045e-03,1.458282332428538844e-02,1.178906028400406869e-01
-1.157657657657657602e+00,3.193693983692854222e-03,1.485601650318859115e-02,1.192817617536799657e-01
-1.154654654654654777e+00,3.265700996306920931e-03,1.513400362878315059e-02,1.206829575843439140e-01
-1.151651651651651731e+00,3.339291907018445468e-03,1.541687440583353746e-02,1.220943082351059611e-01
-1.148648648648648685e+00,3.414502408165321235e-03,1.570472011502892576e-02,1.235159324635121403e-01
-1.145645645645645638e+00,3.491368977603223536e-03,1.599763364243899158e-02,1.249479498915746084e-01
-1.142642642642642592e+00,3.569928896397785850e-03,1.629570950948791216e-02,1.263904810158387182e-01
-1.139639639639639768e+00,3.650220266906233253e-03,1.659904390345558547e-02,1.278436472175202010e-01
-1.136636636636636721e+00,3.732282031257411984e-03,1.690773470851664531e-02,1.293075707727184831e-01
-1.133633633633633675e+00,3.816153990239122985e-03,1.722188153732716678e-02,1.307823748627059968e-01
-1.130630630630630629e+00,3.901876822601920477e-03,1.754158576316909579e-02,1.322681835842935416e-01
-1.127627627627627582e+00,3.989492104788732244e-03,1.786695055266286289e-02,1.337651219602727926e-01
-1.124624624624624758e+00,4.079042331099840858e-03,1.819808089905857254e-02,1.352733159499359683e-01
-1.121621621621621490e+00,4.170570934303061313e-03,1.853508365611673467e-02,1.367928924596748530e-01
-1.118618618618618665e+00,4.264122306699048501e-03,1.887806757258918625e-02,1.383239793536584217e-01
-1.115615615615615619e+00,4.359741821652068743e-03,1.922714332731194700e-02,1.398667054645937602e-01
-1.112612612612612573e+00,4.457475855596432050e-03,1.958242356492009492e-02,1.414212006045631742e-01
-1.109609609609609748e+00,4.557371810529601067e-03,1.994402293219782463e-02,1.429875955759493111e-01
-1.106606606606606480e+00,4.659478137002716347e-03,2.031205811507458964e-02,1.445660221824437708e-01
-1.103603603603603656e+00,4.763844357619433784e-03,2.068664787627820870e-02,1.461566132401325713e-01
-1.100600600600600609e+00,4.870521091055026418e-03,2.106791309365948356e-02,1.477595025886759283e-01
-1.097597597597597563e+00,4.979560076606925727e-03,2.145597679919861514e-02,1.493748251025693030e-01
-1.094594594594594517e+00,5.091014199288725756e-03,2.185096421870651520e-02,1.510027167024899364e-01
-1.091591591591591470e+00,5.204937515480110612e-03,2.225300281223512727e-02,1.526433143667386416e-01
-1.088588588588588646e+00,5.321385279144661036e-03,2.266222231520765434e-02,1.542967561427633083e-01
-1.085585585585585600e+00,5.440413968628528794e-03,2.307875478028313318e-02,1.559631811587729455e-01
-1.082582582582582553e+00,5.562081314053010130e-03,2.350273461996904220e-02,1.576427296354449281e-01
-1.079579579579579507e+00,5.686446325314375647e-03,2.393429864999596299e-02,1.593355428977273891e-01
-1.076576576576576461e+00,5.813569320704176091e-03,2.437358613346683744e-02,1.610417633867286258e-01
-1.073573573573573636e+00,5.943511956164208854e-03,2.482073882579623192e-02,1.627615346717022071e-01
-1.070570570570570590e+00,6.076337255190211208e-03,2.527590102045370810e-02,1.644950014621256174e-01
-1.067567567567567544e+00,6.212109639399064458e-03,2.573921959552711788e-02,1.662423096198815953e-01
-1.064564564564564497e+00,6.350894959773870779e-03,2.621084406111907905e-02,1.680036061715300955e-01
-1.061561561561561451e+00,6.492760528602347855e-03,2.669092660759293800e-02,1.697790393206795312e-01
-1.058558558558558627e+00,6.637775152123904891e-03,2.717962215468342282e-02,1.715687584604555782e-01
-1.055555555555555580e+00,6.786009163901373341e-03,2.767708840148833116e-02,1.733729141860720357e-01
-1.052552552552552534e+00,6.937534458933568640e-03,2.818348587735736849e-02,1.751916583075045497e-01
-1.049549549549549488e+00,7.092424528524981543e-03,2.869897799369353769e-02,1.770251438622616746e-01
-1.046546546546546441e+00,7.250754495929987060e-03,2.922373109668575594e-02,1.788735251282666527e-01
-1.043543543543543617e+00,7.412601152788264244e-03,2.975791452098725323e-02,1.807369576368361153e-01
-1.040540540540540571e+00,7.578042996369534733e-03,3.030170064435893165e-02,1.826155981857675581e-01
-1.037537537537537524e+00,7.747160267645527600e-03,3.085526494329456776e-02,1.845096048525328714e-01
-1.034534534534534478e+00,7.920034990207649658e-03,3.141878604964598587e-02,1.864191370075792831e-01
-1.031531531531531432e+00,8.096751010049250616e-03,3.199244580826640649e-02,1.883443553277394100e-01
-1.028528528528528607e+00,8.277394036231894639e-03,3.257642933569117327e-02,1.902854218097540795e-01
-1.025525525525525561e+00,8.462051682455005649e-03,3.317092507987325772e-02,1.922424997839005945e-01
-1.022522522522522515e+00,8.650813509549408128e-03,3.377612488099430293e-02,1.942157539277364064e-01
-1.019519519519519468e+00,8.843771068915219288e-03,3.439222403337021533e-02,1.962053502799553373e-01
-1.016516516516516422e+00,9.041017946925309148e-03,3.501942134847187138e-02,1.982114562543612346e-01
-1.013513513513513598e+00,9.242649810315627448e-03,3.565791921908029877e-02,2.002342406539546205e-01
-1.010510510510510551e+00,9.448764452584556758e-03,3.630792368459771075e-02,2.022738736851367736e-01
-1.007507507507507505e+00,9.659461841423558695e-03,3.696964449753438464e-02,2.043305269720276096e-01
-1.004504504504504458e+00,9.874844167202643033e-03,3.764329519119502532e-02,2.064043735709095995e-01
-1.001501501501501412e+00,1.009501589253372460e-02,3.832909314858468086e-02,2.084955879847894544e-01
-9.984984984984984768e-01,1.032008380293619049e-02,3.902725967255739337e-02,2.106043461780845172e-01
-9.954954954954955415e-01,1.055015705862885622e-02,3.973802005722895658e-02,2.127308255914268920e-01
-9.924924924924924952e-01,1.078534724747360479e-02,4.046160366067722697e-02,2.148752051565905319e-01
-9.894894894894894488e-01,1.102576843909680929e-02,4.119824397895539836e-02,2.170376653115514975e-01
-9.864864864864865135e-01,1.127153724021433268e-02,4.194817872143991044e-02,2.192183880156718390e-01
-9.834834834834834671e-01,1.152277285118684554e-02,4.271164988753741593e-02,2.214175567650080723e-01
-9.804804804804805318e-01,1.177959712383325197e-02,4.348890384477670928e-02,2.236353566077525223e-01
-9.774774774774774855e-01,1.204213462052994288e-02,4.428019140830956324e-02,2.258719741598015085e-01
-9.744744744744744391e-01,1.231051267462491758e-02,4.508576792184770810e-02,2.281275976204605593e-01
-9.714714714714715038e-01,1.258486145219576101e-02,4.590589334006075356e-02,2.304024167882803564e-01
-9.684684684684684575e-01,1.286531401518158091e-02,4.674083231246213554e-02,2.326966230770284305e-01
-9.654654654654655221e-01,1.315200638591917937e-02,4.759085426880924757e-02,2.350104095317916975e-01
-9.624624624624624758e-01,1.344507761311544008e-02,4.845623350604738588e-02,2.373439708452236008e-01
-9.594594594594594295e-01,1.374466983928725183e-02,4.933724927682329314e-02,2.396975033739240368e-01
-9.564564564564564941e-01,1.405092836970221228e-02,5.023418587959883885e-02,2.420712051549645527e-01
-9.534534534534534478e-01,1.436400174285308758e-02,5.114733275039214100e-02,2.444652759225507399e-01
-9.504504504504504014e-01,1.468404180250031110e-02,5.207698455617620209e-02,2.468799171248256263e-01
-9.474474474474474661e-01,1.501120377131806918e-02,5.302344128996734629e-02,2.493153319408262791e-01
-9.444444444444444198e-01,1.534564632617869961e-02,5.398700836763044991e-02,2.517717252975771314e-01
-9.414414414414414845e-01,1.568753167511257804e-02,5.496799672643486179e-02,2.542493038873333000e-01
-9.384384384384384381e-01,1.603702563598058406e-02,5.596672292539169730e-02,2.567482761849716466e-01
-9.354354354354353918e-01,1.639429771689761631e-02,5.698350924740605561e-02,2.592688524655352711e-01
-9.324324324324324564e-01,1.675952119844560662e-02,5.801868380327536434e-02,2.618112448219250821e-01
-9.294294294294294101e-01,1.713287321771654256e-02,5.907258063756936489e-02,2.643756671827491300e-01
-9.264264264264264748e-01,1.751453485422545947e-02,6.014553983642318552e-02,2.669623353303189339e-01
-9.234234234234234284e-01,1.790469121773623218e-02,6.123790763728255426e-02,2.695714669188121748e-01
-9.204204204204203821e-01,1.830353153804134200e-02,6.235003654063119710e-02,2.722032814925820499e-01
-9.174174174174174468e-01,1.871124925674037126e-02,6.348228542374115269e-02,2.748580005046328267e-01
-9.144144144144144004e-01,1.912804212106122143e-02,6.463501965648058012e-02,2.775358473352548816e-01
-9.114114114114114651e-01,1.955411227976944916e-02,6.580861121921603718e-02,2.802370473108197757e-01
