# Energy Eigenvalues:,3.801409,15.127794,33.703746,58.854927,88.436000
# Position x, Psi 1,Psi 2,Psi 3,Psi 4,Psi 5
-1.500000000000000000e+00,1.913813535119725296e-08,-8.320176102422148888e-08,4.976057509024964616e-07,-5.910812106131672849e-06,-2.579204129059710490e-04
-1.496996996996996954e+00,3.830947618981344154e-08,-1.665308839513276077e-07,9.958065003617604965e-07,-1.182601059501383580e-05,-5.158946199968174806e-04
-1.493993993993993907e+00,5.754728561621545063e-08,-2.501149256446717792e-07,1.495197958387920443e-06,-1.774998510450871068e-05,-7.739764266772113620e-04
-1.490990990990991083e+00,7.688494205662668498e-08,-3.340818331869810571e-07,1.996377258748516179e-06,-2.368713178511742774e-05,-1.032219660793753284e-03
-1.487987987987988037e+00,9.635599717613129824e-08,-4.185601397365945005e-07,2.499943672974978554e-06,-2.964185656234038748e-05,-1.290678183861789690e-03
-1.484984984984984990e+00,1.159942340922548463e-07,-5.036791612808413390e-07,3.006499326925277006e-06,-3.561857840629141958e-05,-1.549405902299247264e-03
-1.481981981981981944e+00,1.358337259901268079e-07,-5.895691945877492724e-07,3.516649920759588821e-06,-4.162173261099283981e-05,-1.808456778669857495e-03
-1.478978978978978898e+00,1.559088952409198735e-07,-6.763617166590800757e-07,4.031005453189774567e-06,-4.765577408578351335e-05,-2.067884842938052560e-03
-1.475975975975976073e+00,1.762545731261442479e-07,-7.641895859900296243e-07,4.550180950868786239e-06,-5.372518066128406715e-05,-2.327744203737946733e-03
-1.472972972972973027e+00,1.969060602714178203e-07,-8.531872459436561568e-07,5.074797203792064121e-06,-5.983445641237142157e-05,-2.588089059658710712e-03
-1.469969969969969981e+00,2.178991878945684640e-07,-9.434909305513611402e-07,5.605481507590303923e-06,-6.598813500062906262e-05,-2.848973710548712620e-03
-1.466966966966966934e+00,2.392703799743355898e-07,-1.035238873054448481e-06,6.142868413601113622e-06,-7.219078303875323479e-05,-3.110452568840754543e-03
-1.463963963963963888e+00,2.610567164475420686e-07,-1.128571517506013245e-06,6.687600487616635647e-06,-7.844700347941318522e-05,-3.372580170900861627e-03
-1.460960960960961064e+00,2.832959975443780565e-07,-1.223631733757038283e-06,7.240329078214111056e-06,-8.476143903107836183e-05,-3.635411188402869111e-03
-1.457957957957958017e+00,3.060268093734243347e-07,-1.320565036155798706e-06,7.801715095588226693e-06,-9.113877560334759974e-05,-3.899000439731222477e-03
-1.454954954954954971e+00,3.292885908702043538e-07,-1.419519806295345122e-06,8.372429801816411523e-06,-9.758374578433697314e-05,-4.163402901414332141e-03
-1.451951951951951925e+00,3.531217022254416386e-07,-1.520647520150103878e-06,8.953155613502448003e-06,-1.041011323527111457e-04,-4.428673719591081324e-03
-1.448948948948948878e+00,3.775674949117185512e-07,-1.624102979949164313e-06,9.544586917757415099e-06,-1.106957718269566051e-04,-4.694868221512511069e-03
-1.445945945945946054e+00,4.026683834300585881e-07,-1.730044551141295356e-06,1.014743090249421588e-05,-1.173725580545365417e-04,-4.962041927081368639e-03
-1.442942942942943008e+00,4.284679189009119613e-07,-1.838634404814404320e-06,1.076240840202837672e-05,-1.241364458435905403e-04,-5.230250560431875043e-03
-1.439939939939939961e+00,4.550108646272216573e-07,-1.950038765940505022e-06,1.139025475899612305e-05,-1.309924546398718063e-04,-5.499550061552049667e-03
-1.436936936936936915e+00,4.823432737606771750e-07,-2.064428167826201322e-06,1.203172070362030993e-05,-1.379456722516512860e-04,-5.769996597951035366e-03
-1.433933933933933869e+00,5.105125692059120006e-07,-2.181977713158202855e-06,1.268757325137571240e-05,-1.450012586253537070e-04,-6.041646576373911615e-03
-1.430930930930931044e+00,5.395676259012836812e-07,-2.302867342043467951e-06,1.335859662012696125e-05,-1.521644496747272116e-04,-6.314556654566392223e-03
-1.427927927927927998e+00,5.695588556189862156e-07,-2.427282107454240933e-06,1.404559316783562863e-05,-1.594405611663859881e-04,-6.588783753091818907e-03
-1.424924924924924952e+00,6.005382944316393161e-07,-2.555412458499679353e-06,1.474938435195787257e-05,-1.668349926646121666e-04,-6.864385067202979918e-03
-1.421921921921921905e+00,6.325596929971290802e-07,-2.687454531957748642e-06,1.547081171168034617e-05,-1.743532315383493683e-04,-7.141418078771484199e-03
-1.418918918918918859e+00,6.656786098182962419e-07,-2.823610452513440206e-06,1.621073787416744955e-05,-1.820008570333464233e-04,-7.419940568276522062e-03
-1.415915915915916035e+00,6.999525076393197752e-07,-2.964088642163066771e-06,1.697004758602419018e-05,-1.897835444124850997e-04,-7.700010626856022139e-03
-1.412912912912912988e+00,7.354408531460632585e-07,-3.109104139258318678e-06,1.774964877120824671e-05,-1.977070691673666681e-04,-7.981686668422813616e-03
-1.409909909909909942e+00,7.722052201433195388e-07,-3.258878927678264327e-06,1.855047361665512122e-05,-2.057773113042715371e-04,-8.265027441847837275e-03
-1.406906906906906896e+00,8.103093963880131808e-07,-3.413642276633339516e-06,1.937347968691544218e-05,-2.140002597076818441e-04,-8.550092043213382981e-03
-1.403903903903903849e+00,8.498194942636970132e-07,-3.573631091621402633e-06,2.021965106913667384e-05,-2.223820165846008526e-04,-8.836939928138661665e-03
-1.400900900900900803e+00,8.908040654883908707e-07,-3.739090277073179099e-06,2.108999954975887084e-05,-2.309288019929717163e-04,-9.125630924180521200e-03
-1.397897897897897979e+00,9.333342200547449724e-07,-3.910273111242027002e-06,2.198556582433047811e-05,-2.396469584575462014e-04,-9.416225243311473689e-03
-1.394894894894894932e+00,9.774837496089414976e-07,-4.087441633912121255e-06,2.290742074189197568e-05,-2.485429556766415352e-04,-9.708783494478118517e-03
-1.391891891891891886e+00,1.023329255482362330e-06,-4.270867047518351608e-06,2.385666658541426690e-05,-2.576233953232667535e-04,-1.000336669624219375e-02
-1.388888888888888840e+00,1.070950281598211677e-06,-4.460830132292163856e-06,2.483443838982404871e-05,-2.668950159441950323e-04,-1.030003628950733677e-02
-1.385885885885885793e+00,1.120429452483615796e-06,-4.657621676068513482e-06,2.584190529919042203e-05,-2.763646979605974925e-04,-1.059885415033351604e-02
-1.382882882882882969e+00,1.171852616626742139e-06,-4.861542919412227539e-06,2.688027196469743285e-05,-2.860394687739710061e-04,-1.089988260284256716e-02
-1.379879879879879923e+00,1.225308995427616813e-06,-5.072906016744916318e-06,2.795077998507299459e-05,-2.959265079811364426e-04,-1.120318443221707955e-02
-1.376876876876876876e+00,1.280891338001092898e-06,-5.292034514178406265e-06,2.905470939119697552e-05,-3.060331527021806415e-04,-1.150882289779547180e-02
-1.373873873873873830e+00,1.338696082100550823e-06,-5.519263844786080839e-06,3.019338017666329003e-05,-3.163669030252949481e-04,-1.181686174626593588e-02
-1.370870870870870784e+00,1.398823521441530683e-06,-5.754941842070261918e-06,3.136815387612605605e-05,-3.269354275725479915e-04,-1.212736522496185056e-02
-1.367867867867867959e+00,1.461377979715655968e-06,-5.999429272411777432e-06,3.258043519331807177e-05,-3.377465691907339759e-04,-1.244039809526196159e-02
-1.364864864864864913e+00,1.526467991596704166e-06,-6.253100387316522796e-06,3.383167368068665004e-05,-3.488083507715032997e-04,-1.275602564609740197e-02
-1.361861861861861867e+00,1.594206491052948092e-06,-6.516343496304665045e-06,3.512336547265705020e-05,-3.601289812051136109e-04,-1.307431370756911328e-02
-1.358858858858858820e+00,1.664711007292451607e-06,-6.789561561319221282e-06,3.645705507459463129e-05,-3.717168614722050034e-04,-1.339532866467799295e-02
-1.355855855855855774e+00,1.738103868681280228e-06,-7.073172813563906944e-06,3.783433720960486813e-05,-3.835805908781200432e-04,-1.371913747117060184e-02
-1.352852852852852950e+00,1.814512414988474409e-06,-7.367611393714600741e-06,3.925685872538014950e-05,-3.957289734344040231e-04,-1.404580766350365523e-02
-1.349849849849849903e+00,1.894069218326021223e-06,-7.673328016484395973e-06,4.072632056337315801e-05,-4.081710243922147350e-04,-1.437540737493000868e-02
-1.346846846846846857e+00,1.976912313167170593e-06,-7.990790660559535783e-06,4.224447979265147477e-05,-4.209159769324948659e-04,-1.470800534970917624e-02
-1.343843843843843811e+00,2.063185435842185588e-06,-8.320485284962349476e-06,4.381315171086529457e-05,-4.339732890178683270e-04,-1.504367095744528829e-02
-1.340840840840840764e+00,2.153038273927069299e-06,-8.662916572937812086e-06,4.543421201484066670e-05,-4.473526504113480256e-04,-1.538247420755555969e-02
-1.337837837837837718e+00,2.246626725957907945e-06,-9.018608704502173388e-06,4.710959904339220123e-05,-4.610639898670512824e-04,-1.572448576387181982e-02
-1.334834834834834894e+00,2.344113171921542789e-06,-9.388106158836633555e-06,4.884131609503930560e-05,-4.751174824982781460e-04,-1.606977695937885850e-02
-1.331831831831831847e+00,2.445666754991822257e-06,-9.771974547754136187e-06,5.063143382339580986e-05,-4.895235573284092891e-04,-1.641841981109225246e-02
-1.328828828828828801e+00,2.551463675000283857e-06,-1.017080148151515937e-05,5.248209271309806643e-05,-5.042929050302312477e-04,-1.677048703507894034e-02
-1.325825825825825754e+00,2.661687494150433497e-06,-1.058519746831778942e-05,5.439550563923097591e-05,-5.194364858594273078e-04,-1.712605206162346946e-02
-1.322822822822822708e+00,2.776529455506095651e-06,-1.101579684883924962e-05,5.637396051331430212e-05,-5.349655377881342138e-04,-1.748518905054357794e-02
-1.319819819819819884e+00,2.896188814806293820e-06,-1.146325876725880249e-05,5.841982301900935958e-05,-5.508915848445712854e-04,-1.784797290665721126e-02
-1.316816816816816837e+00,3.020873186182507741e-06,-1.192826818024904969e-05,6.053553944082077742e-05,-5.672264456649588147e-04,-1.821447929540529267e-02
-1.313813813813813791e+00,3.150798902378188787e-06,-1.241153690548030074e-05,6.272363958917626060e-05,-5.839822422640806839e-04,-1.858478465863363724e-02
-1.310810810810810745e+00,3.286191390095321574e-06,-1.291380471124218596e-05,6.498673982537766809e-05,-6.011714090309589050e-04,-1.895896623053604582e-02
-1.307807807807807698e+00,3.427285561119472116e-06,-1.343584044885126678e-05,6.732754619004460944e-05,-6.188067019563545448e-04,-1.933710205376316243e-02
-1.304804804804804874e+00,3.574326219901803951e-06,-1.397844322957753573e-05,6.974885763878838063e-05,-6.369012080989161842e-04,-1.971927099569955461e-02
-1.301801801801801828e+00,3.727568488305333077e-06,-1.454244364789178374e-05,7.225356938898733553e-05,-6.554683552970201913e-04,-2.010555276491305873e-02
-1.298798798798798781e+00,3.887278248252320006e-06,-1.512870505290612853e-05,7.484467638166427707e-05,-6.745219221334973567e-04,-2.049602792777950599e-02
-1.295795795795795735e+00,4.053732603040802043e-06,-1.573812486995390948e-05,7.752527686260521659e-05,-6.940760481606428594e-04,-2.089077792528616639e-02
-1.292792792792792689e+00,4.227220358130819473e-06,-1.637163597433260732e-05,8.029857608700439011e-05,-7.141452443931194712e-04,-2.128988509001831717e-02
-1.289789789789789864e+00,4.408042522234195147e-06,-1.703020811931132308e-05,8.316789015205902234e-05,-7.347444040764879386e-04,-2.169343266333072576e-02
-1.286786786786786818e+00,4.596512829577618669e-06,-1.771484942059014004e-05,8.613664996210307649e-05,-7.558888137394114901e-04,-2.210150481270934872e-02
-1.283783783783783772e+00,4.792958284245084299e-06,-1.842660789948327027e-05,8.920840533101917296e-05,-7.775941645377207377e-04,-2.251418664932640368e-02
-1.280780780780780725e+00,4.997719727543950698e-06,-1.916657308718752706e-05,9.238682922683059907e-05,-7.998765638987244105e-04,-2.293156424579152058e-02
-1.277777777777777679e+00,5.211152429379269474e-06,-1.993587769259286120e-05,9.567572216355323567e-05,-8.227525474744500512e-04,-2.335372465410388496e-02
-1.274774774774774855e+00,5.433626704662363929e-06,-2.073569933618750818e-05,9.907901674555732443e-05,-8.462390914126671900e-04,-2.378075592380865869e-02
-1.271771771771771808e+00,5.665528555823104838e-06,-2.156726235271198198e-05,1.026007823698720943e-04,-8.703536249547962804e-04,-2.421274712036134910e-02
-1.268768768768768762e+00,5.907260342540721793e-06,-2.243183966532134174e-05,1.062452300920568545e-04,-8.951140433700590857e-04,-2.464978834370409530e-02
-1.265765765765765716e+00,6.159241479855157317e-06,-2.333075473412476775e-05,1.100167176614564647e-04,-9.205387212354663572e-04,-2.509197074705783737e-02
-1.262762762762762669e+00,6.421909165870210713e-06,-2.426538358208496816e-05,1.139197547318620407e-04,-9.466465260714977681e-04,-2.553938655593404605e-02
-1.259759759759759845e+00,6.695719140310954777e-06,-2.523715690137844141e-05,1.179590082538056251e-04,-9.734568323435792989e-04,-2.599212908736982242e-02
-1.256756756756756799e+00,6.981146475251794188e-06,-2.624756224344153668e-05,1.221393080549402306e-04,-1.000989535839778236e-03,-2.645029276939111357e-02
-1.253753753753753752e+00,7.278686399386910863e-06,-2.729814629605419466e-05,1.264656526151746862e-04,-1.029265068435360805e-03,-2.691397316070736831e-02
-1.250750750750750706e+00,7.588855157273340234e-06,-2.839051725094724458e-05,1.309432150434701285e-04,-1.058304413255181089e-03,-2.738326697064212903e-02
-1.247747747747747660e+00,7.912190905037446234e-06,-2.952634726555746069e-05,1.355773492634443171e-04,-1.088129120245144967e-03,-2.785827207930354626e-02
-1.244744744744744835e+00,8.249254644099058973e-06,-3.070737502269926502e-05,1.403735964151825194e-04,-1.118761322164329736e-03,-2.833908755799957602e-02
-1.241741741741741789e+00,8.600631194533007074e-06,-3.193540839207012586e-05,1.453376914809042413e-04,-1.150223751009584513e-03,-2.882581368990102047e-02
-1.238738738738738743e+00,8.966930209756917392e-06,-3.321232719766399583e-05,1.504755701424098581e-04,-1.182539754884800098e-03,-2.931855199095685996e-02
-1.235735735735735696e+00,9.348787234306245851e-06,-3.454008609533076629e-05,1.557933758785132010e-04,-1.215733315327438948e-03,-2.981740523106791996e-02
-1.232732732732732650e+00,9.746864806531383828e-06,-3.592071756488465604e-05,1.612974673109399148e-04,-1.249829065105107764e-03,-3.032247745552147170e-02
-1.229729729729729826e+00,1.016185360813003853e-05,-3.735633502134192601e-05,1.669944258074740047e-04,-1.284852306495389571e-03,-3.083387400669142589e-02
-1.226726726726726779e+00,1.059447366250980406e-05,-3.884913605005197536e-05,1.728910633514523074e-04,-1.320829030062550466e-03,-3.135170154600994130e-02
-1.223723723723723733e+00,1.104547558405965728e-05,-4.040140577067216420e-05,1.789944306870072449e-04,-1.357785933944991030e-03,-3.187606807621348043e-02
-1.220720720720720687e+00,1.151564188049822711e-05,-4.201552033513704832e-05,1.853118257498031856e-04,-1.395750443667801571e-03,-3.240708296386892590e-02
-1.217717717717717640e+00,1.200578831055831462e-05,-4.369395056497603293e-05,1.918508023933446942e-04,-1.434750732495100860e-03,-3.294485696218406312e-02
-1.214714714714714816e+00,1.251676529936321511e-05,-4.543926573354680355e-05,1.986191794212893258e-04,-1.474815742337250027e-03,-3.348950223410683547e-02
-1.211711711711711770e+00,1.304945941395102594e-05,-4.725413749897611811e-05,2.056250499365723983e-04,-1.515975205228511837e-03,-3.404113237571950584e-02
-1.208708708708708723e+00,1.360479490150657545e-05,-4.914134399382642099e-05,2.128767910185149848e-04,-1.558259665391042601e-03,-3.459986243993135036e-02
-1.205705705705705677e+00,1.418373529296987046e-05,-5.110377407774873316e-05,2.203830737394869225e-04,-1.601700501901579280e-03,-3.516580896047468568e-02
-1.202702702702702631e+00,1.478728507480372810e-05,-5.314443175963263566e-05,2.281528735331060859e-04,-1.646329951977693268e-03,-3.573908997621029482e-02
-1.199699699699699806e+00,1.541649143182109559e-05,-5.526644079602256255e-05,2.361954809263719119e-04,-1.692181134900878729e-03,-3.631982505574703896e-02
-1.196696696696696760e+00,1.607244606409563158e-05,-5.747304947283818317e-05,2.445205126485589897e-04,-1.739288076594185930e-03,-3.690813532237989525e-02
-1.193693693693693714e+00,1.675628708110819747e-05,-5.976763557771930539e-05,2.531379231301592405e-04,-1.787685734872676395e-03,-3.750414347935242948e-02
-1.190690690690690667e+00,1.746920097641574803e-05,-6.215371157060719165e-05,2.620580164056216161e-04,-1.837410025385435115e-03,-3.810797383544890088e-02
-1.187687687687687621e+00,1.821242468626869016e-05,-6.463492996047684859e-05,2.712914584341225878e-04,-1.888497848268393077e-03,-3.871975233092134205e-02
-1.184684684684684797e+00,1.898724773574838508e-05,-6.721508889645035382e-05,2.808492898530955259e-04,-1.940987115527717305e-03,-3.933960656375658227e-02
-1.181681681681681750e+00,1.979501447614883872e-05,-6.989813798185130073e-05,2.907429391797770012e-04,-1.994916779174137327e-03,-3.996766581628982684e-02
-1.178678678678678704e+00,2.063712641748364455e-05,-7.268818432009739908e-05,3.009842364765407861e-04,-2.050326860128996991e-03,-4.060406108216823434e-02
-1.175675675675675658e+00,2.151504466016614599e-05,-7.558949880168879323e-05,3.115854274963741487e-04,-2.107258477923572553e-03,-4.124892509367215909e-02
-1.172672672672672611e+00,2.243029243008154731e-05,-7.860652264191572030e-05,3.225591883254057659e-04,-2.165753881213675243e-03,-4.190239234939921453e-02
-1.169669669669669787e+00,2.338445772144928973e-05,-8.174387417929167808e-05,3.339186405399911079e-04,-2.225856479132152805e-03,-4.256459914231652819e-02
-1.166666666666666741e+00,2.437919605206126161e-05,-8.500635594511995552e-05,3.456773668964806083e-04,-2.287610873502581282e-03,-4.323568358818712098e-02
-1.163663663663663694e+00,2.541623333567641867e-05,-8.839896201501539494e-05,3.578494275724331160e-04,-2.351062891938055215e-03,-4.391578565437678078e-02
-1.160660660660660648e+00,2.649736887655515296e-05,-9.192688565363327680e-05,3.704493769786882458e-04,-2.416259621849597885e-03,-4.460504718904653026e-02
-1.157657657657657602e+00,2.762447849132965291e-05,-9.559552726431026521e-05,3.834922811624099032e-04,-2.483249445389499894e-03,-4.530361195073806524e-02
-1.154654654654654777e+00,2.879951776362633543e-05,-9.941050265578385667e-05,3.969937358219019431e-04,-2.552082075355454303e-03,-4.601162563835715230e-02
-1.151651651651651731e+00,3.002452543708756638e-05,-1.033776516386463731e-04,4.109698849547416093e-04,-2.622808592082168360e-03,-4.672923592156205674e-02
-1.148648648648648685e+00,3.130162695267928381e-05,-1.075030469646909563e-04,4.254374401615229791e-04,-2.695481481347797564e-03,-4.745659247156239907e-02
-1.145645645645645638e+00,3.263303813642251804e-05,-1.117930036228356115e-04,4.404137006283009403e-04,-2.770154673323371817e-03,-4.819384699233623948e-02
-1.142642642642642592e+00,3.402106904394730204e-05,-1.162540885058554649e-04,4.559165738116295087e-04,-2.846883582594139303e-03,-4.894115325227146179e-02
-1.139639639639639768e+00,3.546812796853787941e-05,-1.208931304627156457e-04,4.719645968509086583e-04,-2.925725149282389949e-03,-4.969866711623622396e-02
-1.136636636636636721e+00,3.697672561962500045e-05,-1.257172307518978575e-04,4.885769587336639703e-04,-3.006737881302414938e-03,-5.046654657808744004e-02
-1.133633633633633675e+00,3.854947947897484117e-05,-1.307337739117210140e-04,5.057735232402591147e-04,-3.089981897778936587e-03,-5.124495179362358738e-02
-1.130630630630630629e+00,4.018911834213244392e-05,-1.359504390642954439e-04,5.235748526954728905e-04,-3.175518973661207653e-03,-5.203404511398840998e-02
-1.127627627627627582e+00,4.189848705299940363e-05,-1.413752116704138431e-04,5.420022325553417158e-04,-3.263412585565879896e-03,-5.283399111953238081e-02
-1.124624624624624758e+00,4.368055143976024382e-05,-1.470163957533724319e-04,5.610776968586643010e-04,-3.353727958882668503e-03,-5.364495665413900743e-02
-1.121621621621621490e+00,4.553840346072181219e-05,-1.528826266104356759e-04,5.808240545736055842e-04,-3.446532116177775280e-03,-5.446711086002335028e-02
-1.118618618618618665e+00,4.747526656899360605e-05,-1.589828840314002245e-04,6.012649168708970307e-04,-3.541893926930960758e-03,-5.530062521300942863e-02
-1.115615615615615619e+00,4.949450130531808222e-05,-1.653265060444974934e-04,6.224247253562616026e-04,-3.639884158643278984e-03,-5.614567355829559042e-02
